Tempo,E[N],E[W],Erro_Little,Ocupacao
100.000000,90.064023,0.908636,-0.000000000015195,0.957439
200.000000,262.997245,2.624723,0.000000000025552,0.978573
300.000000,315.879815,3.142353,0.000000000059109,0.985851
400.000000,395.288562,3.939884,0.000000000200379,0.989286
500.000000,486.685316,4.836192,0.000000000113148,0.991416
600.000000,560.433631,5.575345,0.000000000129301,0.992858
700.000000,595.814862,5.937114,0.000000000077057,0.993890
800.000000,599.354641,5.972121,-0.000000000275473,0.994657
900.000000,600.436776,5.986077,-0.000000000565938,0.995257
1000.000000,580.307195,5.778053,-0.000000000131794,0.995715
1100.000000,577.990464,5.752346,0.000000000158453,0.996107
1200.000000,561.948870,5.600029,-0.000000000004215,0.996442
1300.000000,525.588024,5.243739,-0.000000000154028,0.995381
1400.000000,500.540340,4.991427,0.000000000429676,0.995700
1500.000000,472.373584,4.714872,-0.000000000220905,0.994645
1600.000000,444.589379,4.441452,-0.000000001071072,0.992542
1700.000000,425.796556,4.250115,-0.000000000566612,0.992489
1800.000000,415.024201,4.144003,-0.000000001076268,0.992896
1900.000000,407.690119,4.073342,-0.000000001474891,0.993284
2000.000000,396.758336,3.963184,-0.000000000843500,0.993609
2100.000000,387.764472,3.874490,-0.000000000772776,0.993927
2200.000000,375.572397,3.753694,-0.000000000677545,0.993923
2300.000000,363.750338,3.636397,-0.000000001004108,0.993741
2400.000000,357.268244,3.569425,0.000000000019094,0.993998
2500.000000,353.088457,3.524949,0.000000000554889,0.994238
2600.000000,348.567407,3.479211,0.000000000741935,0.994462
2700.000000,341.640019,3.409644,0.000000000603105,0.994673
2800.000000,331.883823,3.313418,-0.000000000516860,0.994181
2900.000000,322.627429,3.220943,0.000000000039216,0.993717
3000.000000,312.869243,3.124235,-0.000000000150668,0.992929
3100.000000,304.481977,3.041592,0.000000000656112,0.992702
3200.000000,296.937907,2.966385,0.000000001340332,0.992196
3300.000000,288.897088,2.886059,0.000000001765089,0.991383
3400.000000,281.110293,2.809459,0.000000001218471,0.990174
3500.000000,275.527878,2.754098,0.000000000978123,0.990198
3600.000000,273.165101,2.730673,0.000000002109994,0.990442
3700.000000,269.001140,2.690055,0.000000000535124,0.990647
3800.000000,266.472879,2.664133,0.000000002044888,0.990909
3900.000000,265.082466,2.650553,0.000000002978544,0.991132
4000.000000,262.811814,2.627809,0.000000002342296,0.991349
4100.000000,258.547555,2.585255,0.000000003765675,0.991362
4200.000000,254.292098,2.542509,0.000000004491963,0.991102
4300.000000,251.975143,2.519728,0.000000003226642,0.991308
4400.000000,250.133532,2.501830,0.000000004126220,0.991508
4500.000000,246.628623,2.467010,0.000000005743037,0.991404
4600.000000,244.686469,2.447748,0.000000006039028,0.991546
4700.000000,242.917327,2.430156,0.000000005999722,0.991541
4800.000000,242.240976,2.422809,0.000000006055540,0.991423
4900.000000,245.735817,2.457363,0.000000007503692,0.991603
5000.000000,250.897611,2.508540,0.000000006755508,0.991766
5100.000000,254.564349,2.544705,0.000000007338853,0.991930
5200.000000,258.634842,2.585782,0.000000006250467,0.992088
5300.000000,269.496247,2.693570,0.000000005273812,0.992233
5400.000000,281.251785,2.810592,0.000000001159105,0.992379
5500.000000,291.509757,2.912286,0.000000003717943,0.992522
5600.000000,299.521714,2.992065,0.000000003636130,0.992650
5700.000000,303.418920,3.031142,0.000000001101269,0.992778
5800.000000,300.566075,3.002549,0.000000002292482,0.992833
5900.000000,297.214290,2.969038,0.000000002340519,0.992535
6000.000000,297.599559,2.972607,0.000000002377026,0.992650
6100.000000,294.043492,2.937618,0.000000001447154,0.992480
6200.000000,290.796744,2.905193,0.000000001284316,0.992192
6300.000000,291.336851,2.910057,0.000000003523444,0.992324
6400.000000,290.777328,2.904347,0.000000004747710,0.992438
6500.000000,289.562555,2.892382,0.000000005836771,0.992554
6600.000000,287.861810,2.874911,0.000000004034134,0.992605
6700.000000,288.542025,2.881326,-0.000000003378557,0.992713
6800.000000,290.204360,2.897859,-0.000000003845852,0.992823
6900.000000,286.779196,2.864210,-0.000000001322104,0.992719
7000.000000,284.278091,2.839584,-0.000000006709916,0.992748
7100.000000,281.445203,2.811324,-0.000000007964363,0.992762
7200.000000,279.176058,2.789281,-0.000000006830617,0.992801
7300.000000,276.324639,2.760996,-0.000000006829405,0.992635
7400.000000,273.804914,2.735809,0.000000001508102,0.992512
7500.000000,273.542656,2.732199,0.000000000939782,0.992609
7600.000000,272.353403,2.719937,0.000000004290555,0.992703
7700.000000,272.043923,2.716597,0.000000005621681,0.992801
7800.000000,269.620609,2.692657,0.000000003386330,0.992489
7900.000000,267.141234,2.667654,0.000000000885110,0.992302
8000.000000,264.087497,2.637529,-0.000000002336706,0.991905
8100.000000,262.355098,2.620810,-0.000000003685301,0.991844
8200.000000,261.478490,2.612536,-0.000000005408329,0.991941
8300.000000,258.848467,2.586459,-0.000000009833499,0.991767
8400.000000,256.735046,2.565393,-0.000000009859132,0.991840
8500.000000,254.394501,2.542536,-0.000000010023888,0.991724
8600.000000,253.084737,2.529518,-0.000000006871804,0.991804
8700.000000,251.189752,2.510723,-0.000000006637975,0.991691
8800.000000,251.396908,2.512932,-0.000000001904570,0.991791
8900.000000,250.798708,2.506565,-0.000000002603584,0.991879
9000.000000,248.869859,2.487049,-0.000000003080348,0.991881
9100.000000,246.771838,2.465849,-0.000000004155507,0.991821
9200.000000,244.430376,2.442398,-0.000000003452931,0.991464
9300.000000,242.824703,2.426293,-0.000000003616648,0.991562
9400.000000,240.747451,2.405673,-0.000000007748324,0.991325
9500.000000,238.937726,2.387686,-0.000000003489410,0.991232
9600.000000,239.392704,2.392145,0.000000000613083,0.991324
9700.000000,241.945830,2.417479,0.000000003589265,0.991413
9800.000000,245.233963,2.450374,0.000000003851551,0.991500
9900.000000,248.599412,2.483691,0.000000005600154,0.991589
10000.000000,251.116077,2.509462,0.000000000628562,0.991672
10100.000000,254.461098,2.543083,0.000000002161550,0.991753
10200.000000,259.154534,2.589933,-0.000000000747642,0.991834
10300.000000,262.867225,2.626923,-0.000000001546522,0.991922
10400.000000,266.630530,2.664965,0.000000007526028,0.991991
10500.000000,268.921242,2.687950,0.000000002775916,0.992068
10600.000000,269.424310,2.692993,0.000000004380518,0.992146
10700.000000,268.480573,2.683351,0.000000003397570,0.992216
10800.000000,269.055641,2.689182,0.000000009313438,0.992287
10900.000000,269.812397,2.696622,0.000000010984591,0.992358
11000.000000,270.739544,2.705607,0.000000013179361,0.992432
11100.000000,270.812595,2.706156,0.000000011698116,0.992499
11200.000000,268.823727,2.686503,0.000000013892100,0.992336
11300.000000,266.957479,2.667962,0.000000014727285,0.992272
11400.000000,265.393802,2.652549,0.000000016118431,0.992085
11500.000000,264.713419,2.645820,0.000000017195716,0.992155
11600.000000,263.605487,2.634933,0.000000018289701,0.992222
11700.000000,262.970657,2.628637,0.000000017042500,0.992291
11800.000000,262.576090,2.624782,0.000000019413519,0.992354
11900.000000,261.303042,2.612115,0.000000016673192,0.992308
12000.000000,261.029516,2.609684,0.000000019974956,0.992371
12100.000000,260.946327,2.609067,0.000000024936092,0.992429
12200.000000,259.791959,2.597313,0.000000028644879,0.992452
12300.000000,258.089759,2.580423,0.000000025031381,0.992283
12400.000000,257.085140,2.569836,0.000000023063739,0.992344
12500.000000,256.731321,2.566207,0.000000021100659,0.992405
12600.000000,256.311187,2.561748,0.000000027896057,0.992466
12700.000000,255.327104,2.551913,0.000000026859209,0.992479
12800.000000,253.758309,2.536238,0.000000028912573,0.992471
12900.000000,252.320465,2.521940,0.000000031299253,0.992469
13000.000000,251.088526,2.509605,0.000000034381617,0.992399
13100.000000,250.015592,2.498754,0.000000030841956,0.992378
13200.000000,248.408248,2.482565,0.000000032848899,0.992251
13300.000000,246.893743,2.467520,0.000000037389963,0.992154
13400.000000,245.454850,2.453069,0.000000033544011,0.992120
13500.000000,244.225049,2.440931,0.000000040210837,0.992106
13600.000000,242.768682,2.426827,0.000000039132954,0.991858
13700.000000,241.631066,2.415322,0.000000032460017,0.991864
13800.000000,241.039313,2.409574,0.000000029106448,0.991923
13900.000000,240.223735,2.401355,0.000000014828909,0.991898
14000.000000,238.966257,2.389069,0.000000024087169,0.991654
14100.000000,238.322741,2.382481,0.000000029245631,0.991714
14200.000000,237.602617,2.375155,0.000000032990470,0.991773
14300.000000,236.454771,2.363844,0.000000033840589,0.991736
14400.000000,235.358630,2.352993,0.000000024144275,0.991731
14500.000000,235.057021,2.350048,0.000000023535033,0.991788
14600.000000,234.253932,2.342048,0.000000027500146,0.991844
14700.000000,233.391098,2.333244,0.000000029291338,0.991827
14800.000000,232.289254,2.322477,0.000000030082701,0.991741
14900.000000,231.455873,2.314127,0.000000031532912,0.991795
15000.000000,230.697531,2.306496,0.000000027920874,0.991852
15100.000000,229.658503,2.296085,0.000000038035848,0.991778
15200.000000,228.435333,2.283800,0.000000045572723,0.991601
15300.000000,227.258477,2.271960,0.000000062462707,0.991531
15400.000000,226.104862,2.260365,0.000000061422264,0.991510
15500.000000,224.901722,2.248341,0.000000065088086,0.991377
15600.000000,223.899058,2.238156,0.000000061849689,0.991339
15700.000000,222.936266,2.228815,0.000000070109634,0.991248
15800.000000,223.509342,2.234761,0.000000059317831,0.991301
15900.000000,223.876762,2.238409,0.000000056584379,0.991356
16000.000000,223.238318,2.231849,0.000000060526939,0.991408
16100.000000,222.546223,2.225037,0.000000055301537,0.991445
16200.000000,222.491203,2.224264,0.000000052658356,0.991495
16300.000000,221.361553,2.213121,0.000000053176142,0.991342
16400.000000,221.085504,2.210317,0.000000050428888,0.991274
16500.000000,222.625937,2.225836,0.000000055035690,0.991327
16600.000000,222.412545,2.223703,0.000000045533119,0.991345
16700.000000,222.023528,2.219778,0.000000050110533,0.991383
16800.000000,223.345019,2.232843,0.000000048566422,0.991435
16900.000000,223.678143,2.235948,0.000000054847505,0.991463
17000.000000,222.774264,2.226903,0.000000056772941,0.991400
17100.000000,221.771031,2.216892,0.000000055916289,0.991336
17200.000000,220.738088,2.206419,0.000000053778105,0.991243
17300.000000,220.036806,2.199496,0.000000053624572,0.991293
17400.000000,219.121977,2.190467,0.000000050080501,0.991165
17500.000000,218.115429,2.180346,0.000000045060402,0.991042
17600.000000,217.229376,2.171614,0.000000047365204,0.991018
17700.000000,216.440648,2.163796,0.000000048053497,0.990910
17800.000000,215.952151,2.158865,0.000000054739177,0.990904
17900.000000,215.793909,2.157486,0.000000050439157,0.990903
18000.000000,214.847681,2.148120,0.000000044470699,0.990723
18100.000000,214.107367,2.140849,0.000000036137355,0.990579
18200.000000,213.486729,2.134547,0.000000034958070,0.990571
18300.000000,213.395938,2.133612,0.000000034734028,0.990625
18400.000000,213.195060,2.131674,0.000000030893650,0.990622
18500.000000,212.385307,2.123661,0.000000038387159,0.990391
18600.000000,211.568486,2.115462,0.000000056262277,0.990405
18700.000000,210.917255,2.108982,0.000000050304592,0.990437
18800.000000,210.178661,2.101450,0.000000065737757,0.990382
18900.000000,210.653619,2.106144,0.000000066317245,0.990433
19000.000000,212.451218,2.123877,0.000000057293896,0.990484
19100.000000,213.488146,2.134279,0.000000057123657,0.990534
19200.000000,214.208230,2.141288,0.000000048329998,0.990584
19300.000000,215.570184,2.154806,0.000000035839182,0.990631
19400.000000,216.200213,2.161041,0.000000039145516,0.990681
19500.000000,216.340294,2.162205,0.000000049745567,0.990728
19600.000000,216.786452,2.166560,0.000000033256058,0.990776
19700.000000,217.790238,2.176843,0.000000045335121,0.990823
19800.000000,217.043309,2.169279,0.000000042465717,0.990821
19900.000000,216.080218,2.159722,0.000000041215916,0.990605
20000.000000,215.454018,2.153469,0.000000034721892,0.990599
20100.000000,214.704941,2.146031,0.000000035921165,0.990620
20200.000000,214.829273,2.147242,0.000000035421264,0.990667
20300.000000,214.462537,2.143784,0.000000034523476,0.990682
20400.000000,213.837232,2.137533,0.000000031681851,0.990718
20500.000000,213.045129,2.129708,0.000000041512757,0.990666
20600.000000,212.483946,2.124084,0.000000042016352,0.990668
20700.000000,211.966002,2.118885,0.000000043575873,0.990712
20800.000000,212.801714,2.127025,0.000000037674153,0.990757
20900.000000,212.854111,2.127591,0.000000027551570,0.990774
21000.000000,212.248852,2.121594,0.000000030992897,0.990815
21100.000000,211.577051,2.114664,0.000000032734017,0.990782
21200.000000,211.028834,2.109195,0.000000028066473,0.990769
21300.000000,210.404695,2.103065,0.000000030748263,0.990742
21400.000000,209.833297,2.097296,0.000000030906870,0.990756
21500.000000,209.262655,2.091668,0.000000044255674,0.990776
21600.000000,208.451134,2.083601,0.000000039777406,0.990671
21700.000000,208.053847,2.079531,0.000000031305980,0.990715
21800.000000,208.178164,2.080748,0.000000032385431,0.990757
21900.000000,208.292703,2.081894,0.000000047032534,0.990778
22000.000000,207.813359,2.077017,0.000000052967196,0.990780
22100.000000,207.527958,2.074031,0.000000044750196,0.990774
22200.000000,207.725724,2.076053,0.000000051928627,0.990815
22300.000000,207.171539,2.070530,0.000000055126376,0.990822
22400.000000,206.582331,2.064766,0.000000050220074,0.990797
22500.000000,206.246491,2.061371,0.000000059704706,0.990803
22600.000000,205.806914,2.057091,0.000000066607234,0.990838
22700.000000,205.061120,2.049670,0.000000063274526,0.990786
22800.000000,204.815785,2.047105,0.000000068094035,0.990803
22900.000000,204.423466,2.043186,0.000000069397567,0.990800
23000.000000,204.358680,2.042454,0.000000072928029,0.990790
23100.000000,205.398272,2.052926,0.000000073218120,0.990830
23200.000000,205.356628,2.052509,0.000000063085166,0.990870
23300.000000,204.980321,2.048825,0.000000066764160,0.990907
23400.000000,204.312039,2.042194,0.000000068005975,0.990857
23500.000000,203.652973,2.035695,0.000000075476659,0.990772
23600.000000,202.946233,2.028681,0.000000070431800,0.990669
23700.000000,202.539260,2.024557,0.000000071079332,0.990623
23800.000000,203.368178,2.032697,0.000000072983677,0.990662
23900.000000,203.307128,2.032226,0.000000067392156,0.990668
24000.000000,202.672305,2.025769,0.000000077676543,0.990610
24100.000000,202.520371,2.024046,0.000000075004425,0.990639
24200.000000,203.127190,2.030130,0.000000070973110,0.990680
24300.000000,204.589687,2.044651,0.000000064986252,0.990716
24400.000000,205.437566,2.053197,0.000000072017226,0.990755
24500.000000,204.896262,2.047865,0.000000080112829,0.990741
24600.000000,204.447341,2.043312,0.000000080304979,0.990709
24700.000000,204.139605,2.040236,0.000000075337455,0.990747
24800.000000,203.873413,2.037608,0.000000071942663,0.990727
24900.000000,203.421577,2.033097,0.000000070402363,0.990724
25000.000000,202.914326,2.028132,0.000000075437208,0.990719
25100.000000,202.399673,2.022951,0.000000070496999,0.990680
25200.000000,202.170282,2.020581,0.000000070316906,0.990701
25300.000000,202.908744,2.027932,0.000000067653689,0.990738
25400.000000,204.163295,2.040539,0.000000068327104,0.990775
25500.000000,204.183849,2.040628,0.000000066035346,0.990811
25600.000000,203.561461,2.034426,0.000000062782260,0.990757
25700.000000,202.901149,2.027898,0.000000055488461,0.990675
25800.000000,202.525914,2.024224,0.000000063661245,0.990654
25900.000000,202.441806,2.023548,0.000000073754824,0.990618
26000.000000,201.781781,2.016939,0.000000076136653,0.990515
26100.000000,201.307170,2.011989,0.000000073004346,0.990505
26200.000000,200.925869,2.008307,0.000000067264258,0.990484
26300.000000,201.381571,2.012802,0.000000062255279,0.990521
26400.000000,202.225794,2.021427,0.000000041188054,0.990557
26500.000000,202.301080,2.022181,0.000000023801064,0.990593
26600.000000,203.111039,2.030252,0.000000012950389,0.990628
26700.000000,202.922162,2.028200,0.000000012538497,0.990662
26800.000000,202.682785,2.025773,0.000000018484449,0.990685
26900.000000,202.176285,2.020675,0.000000035257325,0.990642
27000.000000,201.597129,2.014956,0.000000033416309,0.990569
27100.000000,201.907914,2.018082,0.000000021794467,0.990604
27200.000000,202.347989,2.022443,0.000000019024206,0.990639
27300.000000,203.093565,2.029912,0.000000018022779,0.990672
27400.000000,202.661788,2.025621,0.000000028017251,0.990642
27500.000000,202.288041,2.021815,0.000000047421087,0.990651
27600.000000,201.809801,2.017161,0.000000052263264,0.990577
27700.000000,201.615202,2.015189,0.000000051642300,0.990610
27800.000000,201.510986,2.014020,0.000000061579415,0.990645
27900.000000,202.101045,2.019864,0.000000061982822,0.990677
28000.000000,203.594858,2.034811,0.000000050288726,0.990711
28100.000000,204.006260,2.038897,0.000000058409035,0.990743
28200.000000,205.444585,2.053242,0.000000044067472,0.990776
28300.000000,207.392102,2.072668,0.000000031573326,0.990809
28400.000000,209.310380,2.091857,0.000000011772044,0.990841
28500.000000,210.822024,2.106887,0.000000029222748,0.990873
28600.000000,211.690949,2.115767,0.000000026568292,0.990906
28700.000000,211.946280,2.118417,0.000000027321598,0.990939
28800.000000,211.829912,2.117373,0.000000027347622,0.990891
28900.000000,211.624547,2.115352,0.000000025775621,0.990869
29000.000000,211.843462,2.117588,0.000000030933158,0.990894
29100.000000,212.193415,2.121142,0.000000015572877,0.990925
29200.000000,212.444729,2.123737,0.000000013651209,0.990956
29300.000000,212.005695,2.119410,0.000000048558383,0.990935
29400.000000,211.792277,2.117202,0.000000034310991,0.990961
29500.000000,211.782182,2.117078,0.000000035373924,0.990992
29600.000000,211.553599,2.114764,0.000000034748611,0.990985
29700.000000,211.093926,2.110214,0.000000027543243,0.990955
29800.000000,210.633637,2.105646,0.000000023948939,0.990953
29900.000000,210.452211,2.103665,0.000000033223627,0.990965
30000.000000,210.591963,2.105012,0.000000015572783,0.990994
30100.000000,210.676770,2.105694,0.000000007961957,0.991024
30200.000000,211.002297,2.109002,-0.000000004186630,0.991055
30300.000000,210.484593,2.103812,-0.000000007597278,0.991031
30400.000000,210.018504,2.099143,-0.000000000768652,0.991031
30500.000000,209.540216,2.094411,0.000000012129227,0.990974
30600.000000,209.086170,2.089897,0.000000002831257,0.990970
30700.000000,209.032644,2.089322,-0.000000007236727,0.990967
30800.000000,209.359322,2.092567,-0.000000005047615,0.990996
30900.000000,209.799811,2.096985,-0.000000021646006,0.991025
31000.000000,210.288620,2.101909,-0.000000023428230,0.991054
31100.000000,209.893444,2.097941,-0.000000027110826,0.991082
31200.000000,209.472758,2.093757,-0.000000031304446,0.991086
31300.000000,209.202996,2.091115,-0.000000021023305,0.991114
31400.000000,208.686783,2.086053,-0.000000027844088,0.991013
31500.000000,208.400334,2.083126,-0.000000033252635,0.991039
31600.000000,207.933825,2.078448,-0.000000033933732,0.991029
31700.000000,207.559596,2.074691,-0.000000040233234,0.991043
31800.000000,207.047447,2.069623,-0.000000035416893,0.991001
31900.000000,206.491309,2.064095,-0.000000039314324,0.990888
32000.000000,206.055225,2.059848,-0.000000063624011,0.990829
32100.000000,205.507278,2.054371,-0.000000055359253,0.990756
32200.000000,205.070795,2.050007,-0.000000043579194,0.990744
32300.000000,204.623377,2.045509,-0.000000028345234,0.990722
32400.000000,204.172198,2.040877,-0.000000019321309,0.990746
32500.000000,204.161125,2.040716,-0.000000021590750,0.990776
32600.000000,204.130434,2.040368,-0.000000007195080,0.990794
32700.000000,204.141266,2.040392,0.000000005649631,0.990822
32800.000000,204.273302,2.041622,0.000000007014997,0.990850
32900.000000,204.310157,2.042002,0.000000014844064,0.990878
33000.000000,203.993021,2.038857,0.000000021276220,0.990861
33100.000000,203.664496,2.035633,0.000000017803345,0.990865
33200.000000,203.247985,2.031470,0.000000010024775,0.990812
33300.000000,203.887639,2.037742,0.000000000322636,0.990839
